***End_of_Header***
Time	Voltage
6.510000	8.815332e-11
6.511000	7.226452e-10
6.512000	1.341033e-09
6.513000	1.698539e-09
6.514000	1.933655e-09
6.515000	1.753292e-09
6.516000	1.611578e-09
6.517000	1.392566e-09
6.518000	9.480992e-10
6.519000	4.102304e-10
6.520000	-2.403653e-10
6.521000	-8.716364e-10
6.522000	-1.480362e-09
6.523000	-1.879738e-09
6.524000	-2.121296e-09
6.525000	-1.969919e-09
6.526000	-1.757348e-09
6.527000	-1.528674e-09
6.528000	-1.116415e-09
6.529000	-6.10754e-10
6.530000	1.074779e-10
6.531000	7.516322e-10
6.532000	1.341033e-09
6.533000	1.711422e-09
6.534000	1.962642e-09
6.535000	1.779058e-09
6.536000	1.627682e-09
6.537000	1.382903e-09
6.538000	9.416576e-10
6.539000	4.102304e-10
6.540000	-2.468069e-10
6.541000	-8.812988e-10
6.542000	-1.486804e-09
6.543000	-1.863634e-09
6.544000	-2.156724e-09
6.545000	-1.924829e-09
6.546000	-1.750907e-09
6.547000	-1.541557e-09
6.548000	-1.100311e-09
6.549000	-5.68884e-10
6.550000	1.300233e-10
6.551000	7.451906e-10
6.552000	1.379683e-09
6.553000	1.740409e-09
6.554000	2.004512e-09
6.555000	1.83059e-09
6.556000	1.640565e-09
6.557000	1.392566e-09
6.558000	8.836838e-10
6.559000	7.821225e-09
6.560000	1.140916e-08
6.561000	1.260407e-08
6.562000	1.27329e-08
6.563000	1.227877e-08
6.564000	1.134475e-08
6.565000	1.046548e-08
6.566000	9.341428e-09
6.567000	8.156185e-09
6.568000	7.119096e-09
6.569000	6.181852e-09
6.570000	5.511932e-09
6.571000	4.887102e-09
6.572000	4.403987e-09
6.573000	3.811365e-09
6.574000	3.267054e-09
6.575000	2.468303e-09
6.576000	1.811266e-09
6.577000	1.20254e-09
6.578000	4.778666e-10
6.579000	-2.532484e-10
6.580000	-1.077766e-09
6.581000	-1.760569e-09
6.582000	-2.446593e-09
6.583000	-2.878177e-09
6.584000	-3.158384e-09
6.585000	-3.055319e-09
6.586000	-2.936151e-09
6.587000	-2.739684e-09
6.588000	-2.359633e-09
6.589000	-1.844309e-09
6.590000	-1.061662e-09
6.591000	-2.178199e-10
6.592000	6.099182e-10
6.593000	1.093034e-09
6.594000	1.518176e-09
6.595000	1.440877e-09
6.596000	1.331371e-09
6.597000	1.154229e-09
6.598000	7.548529e-10
6.599000	2.427503e-10
6.600000	-4.078454e-10
6.601000	-1.029454e-09
6.602000	-1.602751e-09
6.603000	-1.957036e-09
6.604000	-2.211477e-09
6.605000	-2.008569e-09
6.606000	-1.837868e-09
6.607000	-1.593089e-09
6.608000	-1.158285e-09
6.609000	-6.268578e-10
6.610000	7.849101e-11
6.611000	7.000998e-10
6.612000	1.32815e-09
6.613000	1.65989e-09
6.614000	1.891785e-09
6.615000	1.721084e-09
6.616000	1.556825e-09
6.617000	1.331371e-09
6.618000	8.836838e-10
6.619000	3.490358e-10
6.620000	-3.627546e-10
6.621000	-9.650388e-10
6.622000	-1.538336e-09
6.623000	-1.873296e-09
6.624000	-2.108413e-09
6.625000	-1.918387e-09
6.626000	-1.757348e-09
6.627000	-1.499687e-09
6.628000	-1.074545e-09
6.629000	-5.68884e-10
6.630000	1.525687e-10
6.631000	7.870606e-10
6.632000	1.392566e-09
6.633000	1.737188e-09
6.634000	1.991629e-09
6.635000	1.78872e-09
6.636000	1.634123e-09
6.637000	1.392566e-09
6.638000	9.609823e-10
6.639000	4.198927e-10
6.640000	-2.274822e-10
6.641000	-8.587534e-10
6.642000	-1.467479e-09
6.643000	-1.821764e-09
6.644000	-2.024672e-09
6.645000	-1.834647e-09
6.646000	-1.670388e-09
6.647000	-1.409505e-09
6.648000	-9.747011e-10
6.649000	-4.56157e-10
6.650000	2.363088e-10
6.651000	8.901253e-10
6.652000	1.505293e-09
6.653000	1.846694e-09
6.654000	2.072148e-09
6.655000	1.904668e-09
6.656000	1.724305e-09
6.657000	1.49563e-09
6.658000	1.067268e-09
6.659000	5.165159e-10
6.660000	-1.566253e-10
6.661000	-7.878964e-10
6.662000	-1.377297e-09
6.663000	-1.744465e-09
6.664000	-1.960257e-09
6.665000	-1.773452e-09
6.666000	-1.602751e-09
6.667000	-1.351531e-09
6.668000	-9.263896e-10
6.669000	-4.014039e-10
6.670000	3.136073e-10
6.671000	9.545407e-10
6.672000	1.569708e-09
6.673000	1.895006e-09
6.674000	2.133343e-09
6.675000	1.940097e-09
6.676000	1.78872e-09
6.677000	1.563266e-09
6.678000	1.105917e-09
6.679000	5.777105e-10
6.680000	-8.576831e-11
6.681000	-7.009356e-10
6.682000	-1.312882e-09
6.683000	-1.631738e-09
6.684000	-1.876517e-09
6.685000	-1.692933e-09
6.686000	-1.519011e-09
6.687000	-1.258129e-09
6.688000	-8.36208e-10
6.689000	-3.112223e-10
6.690000	3.973473e-10
6.691000	1.018956e-09
6.692000	1.682435e-09
6.693000	1.998071e-09
6.694000	2.226745e-09
6.695000	2.059265e-09
6.696000	1.878902e-09
6.697000	1.647007e-09
6.698000	1.221865e-09
6.699000	6.743336e-10
6.700000	2.695867e-11
6.701000	-5.946501e-10
6.702000	-1.200155e-09
6.703000	-1.519011e-09
6.704000	-1.738024e-09
6.705000	-1.541557e-09
6.706000	-1.357973e-09
6.707000	-1.061662e-09
6.708000	-6.494032e-10
6.709000	-1.018722e-10
6.710000	6.260221e-10
6.711000	1.260514e-09
6.712000	1.943317e-09
6.713000	2.275057e-09
6.714000	2.510173e-09
6.715000	2.365238e-09
6.716000	2.24607e-09
6.717000	1.998071e-09
6.718000	1.592253e-09
6.719000	1.054385e-09
6.720000	4.198927e-10
6.721000	-1.630668e-10
6.722000	-7.782341e-10
6.723000	-1.068103e-09
6.724000	-1.26135e-09
6.725000	-1.071324e-09
6.726000	-8.297664e-10
6.727000	-5.076893e-10
6.728000	-7.288523e-11
6.729000	4.939705e-10
6.730000	1.266956e-09
6.731000	1.991629e-09
6.732000	2.761393e-09
6.733000	7.863095e-09
6.734000	1.313228e-08
6.735000	1.179888e-08
6.736000	9.486363e-09
6.737000	7.30268e-09
6.738000	5.408867e-09
6.739000	3.817806e-09
6.740000	2.432875e-09
6.741000	1.308826e-09
6.742000	3.490358e-10
6.743000	-1.727291e-10
6.744000	-5.495593e-10
6.745000	-4.368324e-10
6.746000	-3.305469e-10
6.747000	-1.083137e-10
6.748000	3.136073e-10
6.749000	8.450345e-10
6.750000	1.560046e-09
6.751000	2.197758e-09
6.752000	2.822588e-09
6.753000	3.115678e-09
6.754000	3.344353e-09
6.755000	3.128561e-09
6.756000	2.964302e-09
6.757000	2.671212e-09
6.758000	2.200979e-09
6.759000	1.601916e-09
6.760000	9.094499e-10
6.761000	2.008803e-10
6.762000	-4.207285e-10
6.763000	-7.492471e-10
6.764000	-1.016571e-09
6.765000	-8.329872e-10
6.766000	-6.687279e-10
6.767000	-4.14287e-10
6.768000	-1.813212e-11
6.769000	5.261782e-10
6.770000	1.237969e-09
6.771000	1.866019e-09
6.772000	2.461862e-09
6.773000	2.754952e-09
6.774000	2.928873e-09
6.775000	2.693757e-09
6.776000	2.484407e-09
6.777000	2.2042e-09
6.778000	1.74685e-09
6.779000	1.128462e-09
6.780000	4.521004e-10
6.781000	-2.145992e-10
6.782000	-8.36208e-10
6.783000	-1.171168e-09
6.784000	-1.403064e-09
6.785000	-1.213038e-09
6.786000	-1.061662e-09
6.787000	-7.878964e-10
6.788000	-3.659754e-10
6.789000	1.783349e-10
6.790000	8.80463e-10
6.791000	1.524617e-09
6.792000	2.139784e-09
6.793000	2.45542e-09
6.794000	2.629342e-09
6.795000	2.374901e-09
6.796000	2.236408e-09
6.797000	1.943317e-09
6.798000	1.466643e-09
6.799000	9.062292e-10
6.800000	2.137634e-10
6.801000	-4.529362e-10
6.802000	-1.064883e-09
6.803000	-1.399843e-09
6.804000	-1.634959e-09
6.805000	-1.422388e-09
6.806000	-1.248467e-09
6.807000	-9.747011e-10
6.808000	-5.431178e-10
6.809000	-8.469809e-12
