***End_of_Header***
Time	Voltage
12.132000	1.943317e-09
12.133000	1.708201e-09
12.134000	1.57937e-09
12.135000	1.283059e-09
12.136000	8.353722e-10
12.137000	2.588542e-10
12.138000	-4.078454e-10
12.139000	-1.026233e-09
12.140000	-1.605972e-09
12.141000	-1.911945e-09
12.142000	-2.114854e-09
12.143000	-1.892621e-09
12.144000	-1.776673e-09
12.145000	-1.435271e-09
12.146000	-1.01335e-09
12.147000	-4.819232e-10
12.148000	2.717373e-10
12.149000	9.030084e-10
12.150000	1.463423e-09
12.151000	1.753292e-09
12.152000	1.91433e-09
12.153000	1.730747e-09
12.154000	1.57937e-09
12.155000	1.283059e-09
12.156000	8.579176e-10
12.157000	2.524126e-10
12.158000	-4.014039e-10
12.159000	-1.039117e-09
12.160000	-1.609193e-09
12.161000	-1.915166e-09
12.162000	-2.095529e-09
12.163000	-1.886179e-09
12.164000	-1.715478e-09
12.165000	-1.42883e-09
12.166000	-1.019792e-09
12.167000	-4.400531e-10
12.168000	2.588542e-10
12.169000	8.965669e-10
12.170000	1.466643e-09
12.171000	1.782279e-09
12.172000	1.962642e-09
12.173000	1.762954e-09
12.174000	1.57937e-09
12.175000	1.324929e-09
12.176000	9.126707e-10
12.177000	2.846204e-10
12.178000	-4.303908e-10
12.179000	-1.13896e-09
12.180000	5.531256e-09
12.181000	9.09665e-09
12.182000	1.075535e-08
12.183000	1.186973e-08
12.184000	1.208553e-08
12.185000	1.174412e-08
12.186000	1.100013e-08
12.187000	1.018205e-08
12.188000	9.354312e-09
12.189000	8.442833e-09
12.190000	7.515251e-09
12.191000	6.069125e-09
12.192000	4.622999e-09
12.193000	3.511833e-09
12.194000	2.745289e-09
12.195000	1.969084e-09
12.196000	1.16067e-09
12.197000	2.62075e-10
12.198000	-5.978709e-10
12.199000	-1.419168e-09
12.200000	-2.095529e-09
12.201000	-2.498126e-09
12.202000	-2.759008e-09
12.203000	-2.63984e-09
12.204000	-2.578645e-09
12.205000	-2.34675e-09
12.206000	-1.998906e-09
12.207000	-1.486804e-09
12.208000	-8.619741e-10
12.209000	-2.757938e-10
12.210000	2.878411e-10
12.211000	5.841521e-10
12.212000	8.482553e-10
12.213000	8.708007e-10
12.214000	9.287746e-10
12.215000	7.773983e-10
12.216000	4.714251e-10
12.217000	-5.033983e-11
12.218000	-6.332994e-10
12.219000	-1.235584e-09
12.220000	-1.767011e-09
12.221000	-2.053659e-09
12.222000	-2.217919e-09
12.223000	-1.982802e-09
12.224000	-1.824985e-09
12.225000	-1.51257e-09
12.226000	-1.106753e-09
12.227000	-5.076893e-10
12.228000	1.815557e-10
12.229000	8.128268e-10
12.230000	1.395786e-09
12.231000	1.70498e-09
12.232000	1.862798e-09
12.233000	1.675993e-09
12.234000	1.524617e-09
12.235000	1.20254e-09
12.236000	7.806191e-10
12.237000	1.879972e-10
12.238000	-4.593778e-10
12.239000	-1.103532e-09
12.240000	-1.654284e-09
12.241000	-1.950595e-09
12.242000	-2.121296e-09
12.243000	-1.905504e-09
12.244000	-1.728362e-09
12.245000	-1.412726e-09
12.246000	-1.01335e-09
12.247000	-4.110662e-10
12.248000	2.813996e-10
12.249000	9.22333e-10
12.250000	1.485968e-09
12.251000	1.801604e-09
12.252000	1.972304e-09
12.253000	1.750071e-09
12.254000	1.624461e-09
12.255000	1.315267e-09
12.256000	8.643591e-10
12.257000	2.781788e-10
12.258000	-3.788585e-10
12.259000	-9.940257e-10
12.260000	-1.573765e-09
12.261000	-1.863634e-09
12.262000	-2.040776e-09
12.263000	-1.812102e-09
12.264000	-1.660725e-09
12.265000	-1.325765e-09
12.266000	-9.038442e-10
12.267000	-3.273261e-10
12.268000	3.973473e-10
12.269000	1.018956e-09
12.270000	1.592253e-09
12.271000	1.888564e-09
12.272000	2.072148e-09
12.273000	1.86924e-09
12.274000	1.740409e-09
12.275000	1.415111e-09
12.276000	9.867484e-10
12.277000	3.941266e-10
12.278000	-2.629107e-10
12.279000	-8.974026e-10
12.280000	-1.451375e-09
12.281000	-1.754128e-09
12.282000	-1.918387e-09
12.283000	-1.686492e-09
12.284000	-1.541557e-09
12.285000	-1.229142e-09
12.286000	-8.104418e-10
12.287000	-2.274822e-10
12.288000	4.617628e-10
12.289000	1.125242e-09
12.290000	1.692097e-09
12.291000	1.998071e-09
12.292000	2.155888e-09
12.293000	1.975525e-09
12.294000	1.820928e-09
12.295000	1.502072e-09
12.296000	1.083372e-09
12.297000	4.778666e-10
12.298000	-1.534045e-10
12.299000	-7.814549e-10
12.300000	-1.357973e-09
12.301000	-1.644621e-09
12.302000	-1.821764e-09
12.303000	-1.605972e-09
12.304000	-1.441713e-09
12.305000	-1.119636e-09
12.306000	-7.009356e-10
12.307000	-9.86514e-11
12.308000	5.841521e-10
12.309000	1.231527e-09
12.310000	1.804824e-09
12.311000	2.114018e-09
12.312000	2.271836e-09
12.313000	2.046382e-09
12.314000	1.882123e-09
12.315000	1.563266e-09
12.316000	1.128462e-09
12.317000	5.616067e-10
12.318000	-4.389829e-11
12.319000	-6.81611e-10
12.320000	-1.18083e-09
12.321000	-1.441713e-09
12.322000	-1.580206e-09
12.323000	-1.319324e-09
12.324000	-1.148623e-09
12.325000	-7.975587e-10
12.326000	-3.498715e-10
12.327000	2.846204e-10
12.328000	9.899692e-10
12.329000	1.637344e-09
12.330000	2.262174e-09
12.331000	2.568147e-09
12.332000	2.754952e-09
12.333000	2.558485e-09
12.334000	2.45542e-09
12.335000	2.149447e-09
12.336000	1.74685e-09
12.337000	1.183215e-09
12.338000	5.873728e-10
12.339000	-3.101521e-11
12.340000	-5.431178e-10
12.341000	-7.492471e-10
12.342000	-7.878964e-10
12.343000	-3.047807e-10
12.344000	1.077467e-08
12.345000	1.078755e-08
12.346000	8.76169e-09
12.347000	6.964499e-09
12.348000	5.792139e-09
12.349000	5.118998e-09
12.350000	4.774375e-09
12.351000	4.465181e-09
12.352000	4.188195e-09
12.353000	3.688975e-09
12.354000	3.337911e-09
12.355000	2.845133e-09
12.356000	2.310485e-09
12.357000	1.614799e-09
12.358000	9.094499e-10
12.359000	2.33088e-10
12.360000	-4.400531e-10
12.361000	-7.105979e-10
12.362000	-8.619741e-10
12.363000	-6.751694e-10
12.364000	-4.883647e-10
12.365000	-1.59846e-10
12.366000	2.234257e-10
12.367000	8.579176e-10
12.368000	1.556825e-09
12.369000	2.200979e-09
12.370000	2.767835e-09
12.371000	3.054483e-09
12.372000	3.196197e-09
12.373000	2.964302e-09
12.374000	2.780718e-09
12.375000	2.436095e-09
12.376000	2.001291e-09
12.377000	1.344254e-09
12.378000	6.678921e-10
12.379000	-5.249038e-12
12.380000	-6.010917e-10
12.381000	-9.585973e-10
12.382000	-1.113194e-09
12.383000	-8.941818e-10
12.384000	-7.911172e-10
12.385000	-4.883647e-10
12.386000	-7.288523e-11
12.387000	4.971912e-10
12.388000	1.192878e-09
12.389000	1.817707e-09
12.390000	2.391005e-09
12.391000	2.680874e-09
12.392000	2.819367e-09
12.393000	2.600355e-09
12.394000	2.452199e-09
12.395000	2.088252e-09
12.396000	1.637344e-09
12.397000	1.009294e-09
12.398000	3.103865e-10
12.399000	-3.530923e-10
12.400000	-9.167272e-10
12.401000	-1.235584e-09
12.402000	-1.444934e-09
12.403000	-1.200155e-09
12.404000	-1.032675e-09
12.405000	-7.138187e-10
12.406000	-2.983392e-10
12.407000	3.007242e-10
12.408000	9.996315e-10
12.409000	1.614799e-09
12.410000	2.175213e-09
12.411000	2.448978e-09
12.412000	2.597134e-09
12.413000	2.37168e-09
12.414000	2.220304e-09
12.415000	1.895006e-09
12.416000	1.450539e-09
12.417000	8.224891e-10
12.418000	1.49348e-10
12.419000	-5.173516e-10
12.420000	-1.090649e-09
12.421000	-1.399843e-09
12.422000	-1.570544e-09
12.423000	-1.361194e-09
12.424000	-1.203376e-09
12.425000	-8.651949e-10
12.426000	-4.754816e-10
12.427000	1.235818e-10
12.428000	8.289307e-10
12.429000	1.456981e-09
12.430000	2.017395e-09
12.431000	2.307265e-09
