***End_of_Header***
Time	Voltage
33.723000	-8.909611e-10
33.724000	-2.532484e-10
33.725000	3.780227e-10
33.726000	9.577615e-10
33.727000	1.463423e-09
33.728000	1.695318e-09
33.729000	1.737188e-09
33.730000	1.553604e-09
33.731000	1.405449e-09
33.732000	1.07693e-09
33.733000	6.517883e-10
33.734000	2.695867e-11
33.735000	-5.463386e-10
33.736000	-1.145402e-09
33.737000	-1.654284e-09
33.738000	-1.892621e-09
33.739000	-1.93127e-09
33.740000	-1.738024e-09
33.741000	-1.605972e-09
33.742000	-1.248467e-09
33.743000	-8.812988e-10
33.744000	-2.435861e-10
33.745000	3.973473e-10
33.746000	9.835277e-10
33.747000	1.469864e-09
33.748000	1.721084e-09
33.749000	1.74363e-09
33.750000	1.563266e-09
33.751000	1.434436e-09
33.752000	1.051164e-09
33.753000	6.421259e-10
33.754000	3.017944e-11
33.755000	-5.560009e-10
33.756000	-1.17761e-09
33.757000	-1.651063e-09
33.758000	-1.882959e-09
33.759000	-1.937712e-09
33.760000	-1.725141e-09
33.761000	-1.593089e-09
33.762000	-1.248467e-09
33.763000	-8.265457e-10
33.764000	-2.081576e-10
33.765000	3.909058e-10
33.766000	1.018956e-09
33.767000	1.508513e-09
33.768000	1.74685e-09
33.769000	1.769396e-09
33.770000	1.53428e-09
33.771000	1.295942e-09
33.772000	7.580737e-10
33.773000	1.786359e-08
33.774000	2.27495e-08
33.775000	2.354503e-08
33.776000	2.256914e-08
33.777000	2.0408e-08
33.778000	1.784426e-08
33.779000	1.527409e-08
33.780000	1.291648e-08
33.781000	1.068771e-08
33.782000	8.848651e-09
33.783000	7.222161e-09
33.784000	5.969281e-09
33.785000	4.893544e-09
33.786000	4.046481e-09
33.787000	3.33147e-09
33.788000	2.600355e-09
33.789000	1.882123e-09
33.790000	1.096255e-09
33.791000	6.034767e-10
33.792000	-6.322292e-11
33.793000	-6.94494e-10
33.794000	-1.274233e-09
33.795000	-1.618855e-09
33.796000	-1.950595e-09
33.797000	-2.22436e-09
33.798000	-2.330646e-09
33.799000	-2.243685e-09
33.800000	-2.002127e-09
33.801000	-1.80566e-09
33.802000	-1.399843e-09
33.803000	-9.972465e-10
33.804000	-3.756377e-10
33.805000	2.234257e-10
33.806000	8.031645e-10
33.807000	1.260514e-09
33.808000	1.540721e-09
33.809000	1.553604e-09
33.810000	1.353916e-09
33.811000	1.250852e-09
33.812000	8.740215e-10
33.813000	4.714251e-10
33.814000	-1.46963e-10
33.815000	-7.202602e-10
33.816000	-1.296778e-09
33.817000	-1.757348e-09
33.818000	-1.995686e-09
33.819000	-1.992465e-09
33.820000	-1.795998e-09
33.821000	-1.647842e-09
33.822000	-1.287116e-09
33.823000	-8.619741e-10
33.824000	-2.468069e-10
33.825000	3.87685e-10
33.826000	9.803069e-10
33.827000	1.447319e-09
33.828000	1.695318e-09
33.829000	1.695318e-09
33.830000	1.485968e-09
33.831000	1.402228e-09
33.832000	1.044722e-09
33.833000	6.292429e-10
33.834000	-2.779444e-11
33.835000	-5.753255e-10
33.836000	-1.17761e-09
33.837000	-1.644621e-09
33.838000	-1.84753e-09
33.839000	-1.870075e-09
33.840000	-1.654284e-09
33.841000	-1.515791e-09
33.842000	-1.142181e-09
33.843000	-7.395848e-10
33.844000	-1.050929e-10
33.845000	5.132951e-10
33.846000	1.080151e-09
33.847000	1.57937e-09
33.848000	1.779058e-09
33.849000	1.843474e-09
33.850000	1.650227e-09
33.851000	1.553604e-09
33.852000	1.151008e-09
33.853000	7.355283e-10
33.854000	1.364649e-10
33.855000	-4.464947e-10
33.856000	-1.026233e-09
33.857000	-1.496466e-09
33.858000	-1.72192e-09
33.859000	-1.734803e-09
33.860000	-1.538336e-09
33.861000	-1.412726e-09
33.862000	-1.029454e-09
33.863000	-6.236371e-10
33.864000	4.413275e-12
33.865000	6.13139e-10
33.866000	1.228306e-09
33.867000	1.679214e-09
33.868000	1.888564e-09
33.869000	1.943317e-09
33.870000	1.750071e-09
33.871000	1.627682e-09
33.872000	1.237969e-09
33.873000	7.999437e-10
33.874000	1.944388e-10
33.875000	-3.788585e-10
33.876000	-1.000467e-09
33.877000	-1.444934e-09
33.878000	-1.68005e-09
33.879000	-1.667167e-09
33.880000	-1.473921e-09
33.881000	-1.338648e-09
33.882000	-9.360519e-10
33.883000	-5.270139e-10
33.884000	8.493255e-11
33.885000	7.162037e-10
33.886000	1.341033e-09
33.887000	1.801604e-09
33.888000	2.043161e-09
33.889000	2.049603e-09
33.890000	1.885344e-09
33.891000	1.756513e-09
33.892000	1.379683e-09
33.893000	9.738654e-10
33.894000	3.619189e-10
33.895000	-2.049368e-10
33.896000	-7.782341e-10
33.897000	-1.225921e-09
33.898000	-1.441713e-09
33.899000	-1.403064e-09
33.900000	-1.200155e-09
33.901000	-1.01013e-09
33.902000	-6.075332e-10
33.903000	-1.759499e-10
33.904000	4.682043e-10
33.905000	1.151008e-09
33.906000	1.791941e-09
33.907000	2.297602e-09
33.908000	2.587472e-09
33.909000	2.626121e-09
33.910000	2.503732e-09
33.911000	2.432875e-09
33.912000	2.114018e-09
33.913000	1.762954e-09
33.914000	1.228306e-09
33.915000	7.355283e-10
33.916000	2.202049e-10
33.917000	-1.662876e-10
33.918000	-3.241054e-10
33.919000	-2.178199e-10
33.920000	3.017944e-11
33.921000	2.459711e-10
33.922000	7.548529e-10
33.923000	1.247631e-09
33.924000	2.017395e-09
33.925000	2.777497e-09
33.926000	3.505391e-09
33.927000	4.16887e-09
33.928000	4.764713e-09
33.929000	1.346402e-08
33.930000	2.33389e-08
33.931000	2.144509e-08
33.932000	1.702297e-08
33.933000	1.289716e-08
33.934000	9.399402e-09
33.935000	6.739046e-09
33.936000	4.684194e-09
33.937000	3.244509e-09
33.938000	2.313706e-09
33.939000	1.895006e-09
33.940000	1.759733e-09
33.941000	1.669552e-09
33.942000	1.940097e-09
33.943000	2.271836e-09
33.944000	2.877341e-09
33.945000	3.482846e-09
33.946000	4.069026e-09
33.947000	4.494168e-09
33.948000	4.748609e-09
33.949000	4.684194e-09
33.950000	4.471623e-09
33.951000	4.310584e-09
33.952000	3.856455e-09
33.953000	3.354015e-09
33.954000	2.632562e-09
33.955000	2.017395e-09
33.956000	1.350696e-09
33.957000	8.611384e-10
33.958000	5.551651e-10
33.959000	5.326197e-10
33.960000	6.260221e-10
33.961000	6.389052e-10
33.962000	9.706446e-10
33.963000	1.415111e-09
33.964000	2.242849e-09
33.965000	3.009393e-09
33.966000	3.659988e-09
33.967000	3.924092e-09
33.968000	3.801702e-09
33.969000	3.2896e-09
33.970000	2.835471e-09
33.971000	2.606796e-09
33.972000	2.229966e-09
33.973000	3.434534e-09
33.974000	3.16721e-09
33.975000	2.333031e-09
33.976000	1.363579e-09
33.977000	5.841521e-10
33.978000	4.306253e-11
33.979000	-8.898909e-11
33.980000	-5.35606e-11
33.981000	7.634046e-12
33.982000	3.297111e-10
33.983000	7.000998e-10
33.984000	1.318488e-09
33.985000	1.901447e-09
33.986000	2.49729e-09
33.987000	2.906328e-09
33.988000	3.128561e-09
33.989000	3.0416e-09
33.990000	2.812926e-09
33.991000	2.632562e-09
33.992000	2.188096e-09
33.993000	1.721084e-09
33.994000	1.009294e-09
33.995000	3.683604e-10
33.996000	-2.951184e-10
33.997000	-7.782341e-10
33.998000	-1.074545e-09
33.999000	-1.019792e-09
34.000000	-8.684157e-10
34.001000	-7.202602e-10
34.002000	-3.080015e-10
34.003000	1.074779e-10
34.004000	7.67736e-10
34.005000	1.389345e-09
34.006000	2.004512e-09
34.007000	2.442537e-09
34.008000	2.70664e-09
34.009000	2.632562e-09
34.010000	2.407108e-09
34.011000	2.28794e-09
34.012000	1.846694e-09
34.013000	1.379683e-09
34.014000	7.065414e-10
34.015000	8.171178e-11
34.016000	-5.463386e-10
34.017000	-9.90805e-10
34.018000	-1.251687e-09
34.019000	-1.213038e-09
34.020000	-1.01335e-09
34.021000	-8.555326e-10
34.022000	-4.368324e-10
