***End_of_Header***
Time	Voltage
54.961000	1.268026e-10
54.962000	-4.819232e-10
54.963000	-1.09709e-09
54.964000	-1.593089e-09
54.965000	-1.866855e-09
54.966000	-1.976361e-09
54.967000	-1.754128e-09
54.968000	-1.599531e-09
54.969000	-1.325765e-09
54.970000	-9.231688e-10
54.971000	-3.273261e-10
54.972000	3.103865e-10
54.973000	8.965669e-10
54.974000	1.431215e-09
54.975000	1.675993e-09
54.976000	1.7855e-09
54.977000	1.57937e-09
54.978000	1.450539e-09
54.979000	1.134904e-09
54.980000	7.129829e-10
54.981000	1.300233e-10
54.982000	-4.948062e-10
54.983000	-1.087428e-09
54.984000	-1.589868e-09
54.985000	-1.850751e-09
54.986000	-1.960257e-09
54.987000	-1.767011e-09
54.988000	-1.628518e-09
54.989000	-1.299999e-09
54.990000	-9.135065e-10
54.991000	-3.337677e-10
54.992000	3.232696e-10
54.993000	8.933461e-10
54.994000	1.421553e-09
54.995000	1.672773e-09
54.996000	1.804824e-09
54.997000	1.57937e-09
54.998000	1.463423e-09
54.999000	1.138125e-09
55.000000	6.936583e-10
55.001000	1.396857e-10
55.002000	-4.787024e-10
55.003000	-1.048779e-09
55.004000	-1.560881e-09
55.005000	-1.795998e-09
55.006000	-1.921608e-09
55.007000	-1.750907e-09
55.008000	-1.628518e-09
55.009000	-1.702595e-09
55.010000	9.908284e-09
55.011000	2.169631e-08
55.012000	2.516508e-08
55.013000	2.558378e-08
55.014000	2.445651e-08
55.015000	2.226638e-08
55.016000	1.973808e-08
55.017000	1.695533e-08
55.018000	1.435617e-08
55.019000	1.169581e-08
55.020000	9.183611e-09
55.021000	6.726162e-09
55.022000	4.516713e-09
55.023000	2.49729e-09
55.024000	8.031645e-10
55.025000	-4.400531e-10
55.026000	-1.335427e-09
55.027000	-1.767011e-09
55.028000	-2.134179e-09
55.029000	-2.211477e-09
55.030000	-2.111633e-09
55.031000	-1.544778e-09
55.032000	-6.81611e-10
55.033000	1.171403e-10
55.034000	8.192683e-10
55.035000	1.20254e-09
55.036000	1.399007e-09
55.037000	1.24441e-09
55.038000	1.173553e-09
55.039000	8.772422e-10
55.040000	4.521004e-10
55.041000	-1.050929e-10
55.042000	-7.363641e-10
55.043000	-1.332207e-09
55.044000	-1.870075e-09
55.045000	-2.124516e-09
55.046000	-2.211477e-09
55.047000	-2.011789e-09
55.048000	-1.866855e-09
55.049000	-1.515791e-09
55.050000	-1.100311e-09
55.051000	-5.141309e-10
55.052000	1.396857e-10
55.053000	7.580737e-10
55.054000	1.302384e-09
55.055000	1.572929e-09
55.056000	1.682435e-09
55.057000	1.466643e-09
55.058000	1.357137e-09
55.059000	1.025398e-09
55.060000	6.195805e-10
55.061000	3.984176e-11
55.062000	-5.721047e-10
55.063000	-1.13896e-09
55.064000	-1.676829e-09
55.065000	-1.902283e-09
55.066000	-1.998906e-09
55.067000	-1.770232e-09
55.068000	-1.63818e-09
55.069000	-1.287116e-09
55.070000	-9.231688e-10
55.071000	-3.176638e-10
55.072000	3.393735e-10
55.073000	9.22333e-10
55.074000	1.456981e-09
55.075000	1.714643e-09
55.076000	1.814487e-09
55.077000	1.640565e-09
55.078000	1.521396e-09
55.079000	1.163891e-09
55.080000	7.741776e-10
55.081000	1.783349e-10
55.082000	-4.432739e-10
55.083000	-1.01335e-09
55.084000	-1.515791e-09
55.085000	-1.779894e-09
55.086000	-1.863634e-09
55.087000	-1.657505e-09
55.088000	-1.51257e-09
55.089000	-1.17761e-09
55.090000	-7.65351e-10
55.091000	-1.695084e-10
55.092000	4.907497e-10
55.093000	1.070488e-09
55.094000	1.598695e-09
55.095000	1.856357e-09
55.096000	1.943317e-09
55.097000	1.737188e-09
55.098000	1.624461e-09
55.099000	1.289501e-09
55.100000	8.675799e-10
55.101000	2.878411e-10
55.102000	-3.176638e-10
55.103000	-9.553765e-10
55.104000	-1.422388e-09
55.105000	-1.670388e-09
55.106000	-1.760569e-09
55.107000	-1.544778e-09
55.108000	-1.409505e-09
55.109000	-1.080987e-09
55.110000	-6.751694e-10
55.111000	-8.898909e-11
55.112000	5.616067e-10
55.113000	1.16067e-09
55.114000	1.70176e-09
55.115000	1.930434e-09
55.116000	2.027057e-09
55.117000	1.840253e-09
55.118000	1.698539e-09
55.119000	1.366799e-09
55.120000	9.22333e-10
55.121000	3.586981e-10
55.122000	-2.178199e-10
55.123000	-8.168833e-10
55.124000	-1.322544e-09
55.125000	-1.551219e-09
55.126000	-1.622076e-09
55.127000	-1.419168e-09
55.128000	-1.30322e-09
55.129000	-8.941818e-10
55.130000	-5.68884e-10
55.131000	1.20361e-10
55.132000	7.709568e-10
55.133000	1.366799e-09
55.134000	1.927214e-09
55.135000	2.188096e-09
55.136000	2.281498e-09
55.137000	2.101135e-09
55.138000	2.010954e-09
55.139000	1.679214e-09
55.140000	1.302384e-09
55.141000	7.484114e-10
55.142000	1.847765e-10
55.143000	-3.724169e-10
55.144000	-8.297664e-10
55.145000	-1.026233e-09
55.146000	-1.064883e-09
55.147000	-8.040003e-10
55.148000	-5.882086e-10
55.149000	-1.856122e-10
55.150000	2.975034e-10
55.151000	9.609823e-10
55.152000	1.688877e-09
55.153000	2.37168e-09
55.154000	2.970743e-09
55.155000	3.296041e-09
55.156000	3.466742e-09
55.157000	3.341132e-09
55.158000	3.296041e-09
55.159000	3.03838e-09
55.160000	2.729186e-09
55.161000	2.249291e-09
55.162000	1.775837e-09
55.163000	1.324929e-09
55.164000	1.009294e-09
55.165000	1.099475e-09
55.166000	4.371779e-09
55.167000	2.014712e-08
55.168000	1.93999e-08
55.169000	1.576687e-08
55.170000	1.228521e-08
55.171000	9.876076e-09
55.172000	8.307561e-09
55.173000	7.354213e-09
55.174000	6.813123e-09
55.175000	6.317124e-09
55.176000	5.862996e-09
55.177000	5.299361e-09
55.178000	4.906427e-09
55.179000	4.362116e-09
55.180000	3.814585e-09
55.181000	3.144665e-09
55.182000	2.474745e-09
55.183000	1.833811e-09
55.184000	1.318488e-09
55.185000	1.051164e-09
55.186000	9.384369e-10
55.187000	1.141345e-09
55.188000	1.257293e-09
55.189000	1.566487e-09
55.190000	1.920772e-09
55.191000	2.500511e-09
55.192000	3.099574e-09
55.193000	3.66643e-09
55.194000	4.155987e-09
55.195000	4.375e-09
55.196000	4.391103e-09
55.197000	4.088351e-09
55.198000	3.830689e-09
55.199000	3.383002e-09
55.200000	2.961081e-09
55.201000	2.445758e-09
55.202000	2.014174e-09
55.203000	1.469864e-09
55.204000	7.999437e-10
55.205000	2.137634e-10
55.206000	-3.466508e-10
55.207000	-4.754816e-10
55.208000	-4.593778e-10
55.209000	-1.823914e-10
55.210000	1.656669e-09
55.211000	2.932094e-09
55.212000	3.476404e-09
55.213000	3.756612e-09
55.214000	3.962741e-09
55.215000	3.962741e-09
55.216000	3.824248e-09
55.217000	3.492508e-09
55.218000	3.24773e-09
55.219000	2.800043e-09
55.220000	2.284719e-09
55.221000	1.582591e-09
55.222000	8.933461e-10
55.223000	2.169842e-10
55.224000	-3.595339e-10
55.225000	-6.461825e-10
55.226000	-7.685718e-10
55.227000	-6.075332e-10
55.228000	-4.948062e-10
55.229000	-1.59846e-10
55.230000	2.041011e-10
55.231000	8.321514e-10
55.232000	1.466643e-09
55.233000	2.052824e-09
55.234000	2.542381e-09
55.235000	2.800043e-09
55.236000	2.835471e-09
55.237000	2.619679e-09
55.238000	2.468303e-09
55.239000	2.081811e-09
55.240000	1.637344e-09
55.241000	9.835277e-10
55.242000	3.522565e-10
55.243000	-3.080015e-10
55.244000	-8.877403e-10
55.245000	-1.148623e-09
55.246000	-1.235584e-09
55.247000	-1.029454e-09
55.248000	-9.167272e-10
55.249000	-5.495593e-10
55.250000	-1.340799e-10
55.251000	5.068536e-10
55.252000	1.167112e-09
55.253000	1.7855e-09
55.254000	2.300823e-09
55.255000	2.561705e-09
55.256000	2.648666e-09
55.257000	2.423212e-09
55.258000	2.300823e-09
55.259000	1.917551e-09
55.260000	1.502072e-09
