***End_of_Header***
Time	Voltage
28.475000	1.151008e-09
28.476000	7.355283e-10
28.477000	1.396857e-10
28.478000	-4.432739e-10
28.479000	-1.016571e-09
28.480000	-1.557661e-09
28.481000	-1.857192e-09
28.482000	-1.986023e-09
28.483000	-1.799219e-09
28.484000	-1.63818e-09
28.485000	-1.351531e-09
28.486000	-9.714803e-10
28.487000	-4.014039e-10
28.488000	2.588542e-10
28.489000	7.999437e-10
28.490000	1.386124e-09
28.491000	1.634123e-09
28.492000	1.791941e-09
28.493000	1.57937e-09
28.494000	1.437656e-09
28.495000	1.157449e-09
28.496000	7.355283e-10
28.497000	1.525687e-10
28.498000	-4.497154e-10
28.499000	-1.035896e-09
28.500000	-1.583427e-09
28.501000	-1.850751e-09
28.502000	-1.992465e-09
28.503000	-1.786335e-09
28.504000	-1.641401e-09
28.505000	-1.338648e-09
28.506000	-9.553765e-10
28.507000	-3.981831e-10
28.508000	2.652957e-10
28.509000	8.289307e-10
28.510000	1.373241e-09
28.511000	1.653448e-09
28.512000	1.775837e-09
28.513000	1.57615e-09
28.514000	1.447319e-09
28.515000	1.157449e-09
28.516000	7.741776e-10
28.517000	1.91218e-10
28.518000	-4.175077e-10
28.519000	-9.682596e-10
28.520000	-1.544778e-09
28.521000	-1.837868e-09
28.522000	-2.008569e-09
28.523000	-2.034335e-09
28.524000	5.370218e-09
28.525000	1.764136e-08
28.526000	2.218586e-08
28.527000	2.378981e-08
28.528000	2.347739e-08
28.529000	2.225672e-08
28.530000	2.018576e-08
28.531000	1.779595e-08
28.532000	1.551243e-08
28.533000	1.303243e-08
28.534000	1.078433e-08
28.535000	8.529794e-09
28.536000	6.416968e-09
28.537000	4.346013e-09
28.538000	2.484407e-09
28.539000	8.611384e-10
28.540000	-5.205724e-10
28.541000	-1.4707e-09
28.542000	-2.163166e-09
28.543000	-2.436931e-09
28.544000	-2.617294e-09
28.545000	-2.504567e-09
28.546000	-2.002127e-09
28.547000	-1.190493e-09
28.548000	-3.176638e-10
28.549000	3.941266e-10
28.550000	1.080151e-09
28.551000	1.424773e-09
28.552000	1.598695e-09
28.553000	1.421553e-09
28.554000	1.331371e-09
28.555000	1.044722e-09
28.556000	6.389052e-10
28.557000	-2.028267e-12
28.558000	-5.914294e-10
28.559000	-1.155064e-09
28.560000	-1.699375e-09
28.561000	-1.937712e-09
28.562000	-2.082646e-09
28.563000	-1.886179e-09
28.564000	-1.696154e-09
28.565000	-1.406284e-09
28.566000	-1.003688e-09
28.567000	-4.336116e-10
28.568000	2.105426e-10
28.569000	8.031645e-10
28.570000	1.347475e-09
28.571000	1.627682e-09
28.572000	1.772617e-09
28.573000	1.553604e-09
28.574000	1.437656e-09
28.575000	1.128462e-09
28.576000	7.323075e-10
28.577000	1.654518e-10
28.578000	-4.400531e-10
28.579000	-1.023013e-09
28.580000	-1.567323e-09
28.581000	-1.815322e-09
28.582000	-1.950595e-09
28.583000	-1.731582e-09
28.584000	-1.573765e-09
28.585000	-1.264571e-09
28.586000	-8.716364e-10
28.587000	-3.080015e-10
28.588000	3.393735e-10
28.589000	9.126707e-10
28.590000	1.492409e-09
28.591000	1.756513e-09
28.592000	1.895006e-09
28.593000	1.685656e-09
28.594000	1.560046e-09
28.595000	1.254072e-09
28.596000	8.482553e-10
28.597000	2.298672e-10
28.598000	-3.402092e-10
28.599000	-9.360519e-10
28.600000	-1.464258e-09
28.601000	-1.702595e-09
28.602000	-1.841089e-09
28.603000	-1.618855e-09
28.604000	-1.467479e-09
28.605000	-1.161506e-09
28.606000	-7.524679e-10
28.607000	-1.823914e-10
28.608000	4.810874e-10
28.609000	1.067268e-09
28.610000	1.598695e-09
28.611000	1.859577e-09
28.612000	1.99485e-09
28.613000	1.779058e-09
28.614000	1.643786e-09
28.615000	1.334592e-09
28.616000	8.997876e-10
28.617000	3.393735e-10
28.618000	-2.72573e-10
28.619000	-8.619741e-10
28.620000	-1.380518e-09
28.621000	-1.644621e-09
28.622000	-1.754128e-09
28.623000	-1.531895e-09
28.624000	-1.403064e-09
28.625000	-1.080987e-09
28.626000	-6.81611e-10
28.627000	-1.17976e-10
28.628000	5.455028e-10
28.629000	1.1188e-09
28.630000	1.666331e-09
28.631000	1.923993e-09
28.632000	2.056044e-09
28.633000	1.846694e-09
28.634000	1.717863e-09
28.635000	1.41189e-09
28.636000	1.009294e-09
28.637000	4.231135e-10
28.638000	-1.920538e-10
28.639000	-7.911172e-10
28.640000	-1.299999e-09
28.641000	-1.528674e-09
28.642000	-1.63818e-09
28.643000	-1.415947e-09
28.644000	-1.264571e-09
28.645000	-9.19948e-10
28.646000	-5.366763e-10
28.647000	6.88287e-11
28.648000	7.516322e-10
28.649000	1.337812e-09
28.650000	1.898227e-09
28.651000	2.146226e-09
28.652000	2.300823e-09
28.653000	2.101135e-09
28.654000	2.020616e-09
28.655000	1.737188e-09
28.656000	1.363579e-09
28.657000	8.09606e-10
28.658000	2.427503e-10
28.659000	-2.822353e-10
28.660000	-7.846756e-10
28.661000	-9.843634e-10
28.662000	-1.05522e-09
28.663000	-8.007795e-10
28.664000	-6.010917e-10
28.665000	-2.403653e-10
28.666000	2.041011e-10
28.667000	7.967229e-10
28.668000	1.218644e-09
28.669000	1.74363e-09
28.670000	2.336252e-09
28.671000	2.696978e-09
28.672000	2.938536e-09
28.673000	2.903107e-09
28.674000	3.044821e-09
28.675000	3.064146e-09
28.676000	2.961081e-09
28.677000	2.671212e-09
28.678000	2.400667e-09
28.679000	2.217083e-09
28.680000	1.44077e-08
28.681000	2.303293e-08
28.682000	2.021153e-08
28.683000	1.571211e-08
28.684000	1.156376e-08
28.685000	8.745586e-09
28.686000	6.88398e-09
28.687000	5.911307e-09
28.688000	5.508711e-09
28.689000	5.350893e-09
28.690000	5.389542e-09
28.691000	5.302582e-09
28.692000	5.154426e-09
28.693000	4.755051e-09
28.694000	4.490947e-09
28.695000	4.046481e-09
28.696000	3.58269e-09
28.697000	2.935315e-09
28.698000	2.249291e-09
28.699000	1.634123e-09
28.700000	1.070488e-09
28.701000	7.999437e-10
28.702000	6.55009e-10
28.703000	8.224891e-10
28.704000	9.384369e-10
28.705000	1.257293e-09
28.706000	1.614799e-09
28.707000	2.191317e-09
28.708000	2.825809e-09
28.709000	3.350794e-09
28.710000	3.869339e-09
28.711000	4.033598e-09
28.712000	3.991728e-09
28.713000	3.714742e-09
28.714000	3.640664e-09
28.715000	3.418431e-09
28.716000	3.20586e-09
28.717000	2.564926e-09
28.718000	1.688877e-09
28.719000	6.356844e-10
28.720000	-3.4343e-10
28.721000	-7.943379e-10
28.722000	-9.650388e-10
28.723000	5.594561e-11
28.724000	1.460202e-09
28.725000	1.859577e-09
28.726000	1.907889e-09
28.727000	2.226745e-09
28.728000	2.593913e-09
28.729000	2.964302e-09
28.730000	3.321807e-09
28.731000	3.450638e-09
28.732000	3.434534e-09
28.733000	3.118899e-09
28.734000	2.919211e-09
28.735000	2.523056e-09
28.736000	2.049603e-09
28.737000	1.399007e-09
28.738000	7.194244e-10
28.739000	6.88287e-11
28.740000	-5.173516e-10
28.741000	-8.104418e-10
28.742000	-9.392726e-10
28.743000	-7.717925e-10
28.744000	-6.52624e-10
28.745000	-3.369885e-10
28.746000	4.62833e-11
28.747000	6.260221e-10
28.748000	1.283059e-09
28.749000	1.840253e-09
28.750000	2.381342e-09
28.751000	2.6229e-09
28.752000	2.690536e-09
28.753000	2.461862e-09
28.754000	2.307265e-09
28.755000	1.940097e-09
28.756000	1.482747e-09
28.757000	8.708007e-10
28.758000	1.91218e-10
28.759000	-4.464947e-10
28.760000	-9.811427e-10
28.761000	-1.254908e-09
28.762000	-1.364414e-09
28.763000	-1.164727e-09
28.764000	-1.052e-09
28.765000	-6.655071e-10
28.766000	-2.661315e-10
28.767000	3.748019e-10
28.768000	1.038281e-09
28.769000	1.647007e-09
28.770000	2.226745e-09
28.771000	2.477965e-09
28.772000	2.590692e-09
28.773000	2.368459e-09
28.774000	2.242849e-09
