***End_of_Header***
Time	Voltage
2.693000	-9.070649e-10
2.694000	-2.72573e-10
2.695000	3.425942e-10
2.696000	9.545407e-10
2.697000	1.447319e-09
2.698000	1.711422e-09
2.699000	1.717863e-09
2.700000	1.53428e-09
2.701000	1.399007e-09
2.702000	1.012515e-09
2.703000	6.002559e-10
2.704000	-2.457366e-11
2.705000	-6.429617e-10
2.706000	-1.235584e-09
2.707000	-1.747686e-09
2.708000	-1.979582e-09
2.709000	-2.011789e-09
2.710000	-1.831426e-09
2.711000	-1.692933e-09
2.712000	-1.299999e-09
2.713000	-9.102857e-10
2.714000	-2.983392e-10
2.715000	3.522565e-10
2.716000	9.448784e-10
2.717000	1.440877e-09
2.718000	1.675993e-09
2.719000	1.714643e-09
2.720000	1.508513e-09
2.721000	1.363579e-09
2.722000	9.964108e-10
2.723000	5.809313e-10
2.724000	-3.101521e-11
2.725000	-6.494032e-10
2.726000	-1.254908e-09
2.727000	-1.725141e-09
2.728000	-1.989244e-09
2.729000	-2.021452e-09
2.730000	-1.818543e-09
2.731000	-1.670388e-09
2.732000	-1.312882e-09
2.733000	-9.135065e-10
2.734000	-2.983392e-10
2.735000	3.45815e-10
2.736000	9.384369e-10
2.737000	1.415111e-09
2.738000	1.608357e-09
2.739000	1.57615e-09
2.740000	1.221865e-09
2.741000	9.706446e-10
2.742000	1.815557e-10
2.743000	1.561549e-08
2.744000	2.304581e-08
2.745000	2.443074e-08
2.746000	2.313599e-08
2.747000	2.08267e-08
2.748000	1.827263e-08
2.749000	1.568957e-08
2.750000	1.335773e-08
2.751000	1.106776e-08
2.752000	9.13852e-09
2.753000	7.450836e-09
2.754000	6.168969e-09
2.755000	5.147985e-09
2.756000	4.349233e-09
2.757000	3.682534e-09
2.758000	2.986847e-09
2.759000	2.304044e-09
2.760000	1.524617e-09
2.761000	9.255538e-10
2.762000	2.234257e-10
2.763000	-3.369885e-10
2.764000	-8.394287e-10
2.765000	-1.277454e-09
2.766000	-1.72192e-09
2.767000	-2.108413e-09
2.768000	-2.301659e-09
2.769000	-2.330646e-09
2.770000	-2.159945e-09
2.771000	-1.989244e-09
2.772000	-1.567323e-09
2.773000	-1.142181e-09
2.774000	-4.98027e-10
2.775000	1.268026e-10
2.776000	7.162037e-10
2.777000	1.205761e-09
2.778000	1.463423e-09
2.779000	1.49563e-09
2.780000	1.324929e-09
2.781000	1.208982e-09
2.782000	8.418137e-10
2.783000	4.359966e-10
2.784000	-1.88833e-10
2.785000	-7.782341e-10
2.786000	-1.364414e-09
2.787000	-1.863634e-09
2.788000	-2.089088e-09
2.789000	-2.108413e-09
2.790000	-1.899062e-09
2.791000	-1.747686e-09
2.792000	-1.354752e-09
2.793000	-9.553765e-10
2.794000	-3.176638e-10
2.795000	3.136073e-10
2.796000	9.287746e-10
2.797000	1.431215e-09
2.798000	1.679214e-09
2.799000	1.708201e-09
2.800000	1.527838e-09
2.801000	1.408669e-09
2.802000	1.031839e-09
2.803000	6.099182e-10
2.804000	7.634046e-12
2.805000	-6.10754e-10
2.806000	-1.196934e-09
2.807000	-1.670388e-09
2.808000	-1.928049e-09
2.809000	-1.944153e-09
2.810000	-1.734803e-09
2.811000	-1.576985e-09
2.812000	-1.206597e-09
2.813000	-7.943379e-10
2.814000	-1.791707e-10
2.815000	4.649835e-10
2.816000	1.064047e-09
2.817000	1.543942e-09
2.818000	1.820928e-09
2.819000	1.837032e-09
2.820000	1.653448e-09
2.821000	1.527838e-09
2.822000	1.147787e-09
2.823000	7.419698e-10
2.824000	1.364649e-10
2.825000	-4.625985e-10
2.826000	-1.090649e-09
2.827000	-1.538336e-09
2.828000	-1.795998e-09
2.829000	-1.812102e-09
2.830000	-1.631738e-09
2.831000	-1.480362e-09
2.832000	-1.09709e-09
2.833000	-7.138187e-10
2.834000	-7.6106e-11
2.835000	5.744897e-10
2.836000	1.157449e-09
2.837000	1.630903e-09
2.838000	1.917551e-09
2.839000	1.956201e-09
2.840000	1.74685e-09
2.841000	1.627682e-09
2.842000	1.257293e-09
2.843000	8.321514e-10
2.844000	2.073218e-10
2.845000	-3.820792e-10
2.846000	-9.875842e-10
2.847000	-1.451375e-09
2.848000	-1.715478e-09
2.849000	-1.754128e-09
2.850000	-1.541557e-09
2.851000	-1.38696e-09
2.852000	-1.019792e-09
2.853000	-6.10754e-10
2.854000	1.085482e-11
2.855000	6.55009e-10
2.856000	1.257293e-09
2.857000	1.750071e-09
2.858000	1.991629e-09
2.859000	2.039941e-09
2.860000	1.853136e-09
2.861000	1.733967e-09
2.862000	1.379683e-09
2.863000	9.545407e-10
2.864000	3.619189e-10
2.865000	-2.274822e-10
2.866000	-8.07221e-10
2.867000	-1.277454e-09
2.868000	-1.509349e-09
2.869000	-1.51257e-09
2.870000	-1.306441e-09
2.871000	-1.116415e-09
2.872000	-7.331433e-10
2.873000	-3.112223e-10
2.874000	3.200488e-10
2.875000	1.025398e-09
2.876000	1.65989e-09
2.877000	2.152668e-09
2.878000	2.465082e-09
2.879000	2.552043e-09
2.880000	2.407108e-09
2.881000	2.339472e-09
2.882000	1.998071e-09
2.883000	1.640565e-09
2.884000	1.07693e-09
2.885000	5.487236e-10
2.886000	2.37379e-11
2.887000	-3.820792e-10
2.888000	-5.527801e-10
2.889000	-4.98027e-10
2.890000	-2.210407e-10
2.891000	-8.469809e-12
2.892000	4.617628e-10
2.893000	9.448784e-10
2.894000	1.656669e-09
2.895000	2.407108e-09
2.896000	3.102795e-09
2.897000	3.701858e-09
2.898000	4.114117e-09
2.899000	4.313805e-09
2.900000	4.37822e-09
2.901000	4.726064e-09
2.902000	2.059158e-08
2.903000	2.149018e-08
2.904000	1.737081e-08
2.905000	1.284885e-08
2.906000	9.045118e-09
2.907000	6.223722e-09
2.908000	4.323467e-09
2.909000	3.154327e-09
2.910000	2.584251e-09
2.911000	2.194538e-09
2.912000	2.255732e-09
2.913000	2.436095e-09
2.914000	2.961081e-09
2.915000	3.502171e-09
2.916000	4.081909e-09
2.917000	4.539259e-09
2.918000	4.761492e-09
2.919000	4.748609e-09
2.920000	4.481285e-09
2.921000	4.310584e-09
2.922000	3.888663e-09
2.923000	3.428093e-09
2.924000	2.735627e-09
2.925000	2.101135e-09
2.926000	1.444098e-09
2.927000	8.933461e-10
2.928000	6.163598e-10
2.929000	5.616067e-10
2.930000	7.355283e-10
2.931000	8.192683e-10
2.932000	1.138125e-09
2.933000	1.431215e-09
2.934000	1.969084e-09
2.935000	2.610017e-09
2.936000	3.341132e-09
2.937000	4.017494e-09
2.938000	4.339571e-09
2.939000	4.281597e-09
2.940000	3.734066e-09
2.941000	3.154327e-09
2.942000	2.41355e-09
2.943000	1.840253e-09
2.944000	1.134904e-09
2.945000	1.888564e-09
2.946000	1.972304e-09
2.947000	1.302384e-09
2.948000	7.033206e-10
2.949000	3.490358e-10
2.950000	2.942827e-10
2.951000	2.524126e-10
2.952000	4.939705e-10
2.953000	8.160476e-10
2.954000	1.376462e-09
2.955000	1.991629e-09
2.956000	2.545602e-09
2.957000	3.015834e-09
2.958000	3.202639e-09
2.959000	3.186535e-09
2.960000	2.925653e-09
2.961000	2.764614e-09
2.962000	2.333031e-09
2.963000	1.837032e-09
2.964000	1.167112e-09
2.965000	4.843082e-10
2.966000	-1.727291e-10
2.967000	-7.105979e-10
2.968000	-9.811427e-10
2.969000	-1.080987e-09
2.970000	-8.619741e-10
2.971000	-7.105979e-10
2.972000	-3.466508e-10
2.973000	5.272484e-11
2.974000	6.936583e-10
2.975000	1.357137e-09
2.976000	1.965863e-09
2.977000	2.452199e-09
2.978000	2.684095e-09
2.979000	2.709861e-09
2.980000	2.490849e-09
2.981000	2.336252e-09
2.982000	1.927214e-09
2.983000	1.485968e-09
2.984000	8.031645e-10
2.985000	1.429064e-10
2.986000	-4.787024e-10
2.987000	-1.006909e-09
2.988000	-1.271012e-09
2.989000	-1.319324e-09
2.990000	-1.106753e-09
2.991000	-9.585973e-10
2.992000	-5.592217e-10
