***End_of_Header***
Time	Voltage
32.281000	-8.233249e-10
32.282000	-6.81611e-10
32.283000	-6.10754e-10
32.284000	-4.851439e-10
32.285000	-3.627546e-10
32.286000	-1.17976e-10
32.287000	1.106987e-10
32.288000	2.846204e-10
32.289000	4.295551e-10
32.290000	4.58542e-10
32.291000	4.810874e-10
32.292000	3.425942e-10
32.293000	2.717373e-10
32.294000	1.686726e-10
32.295000	-5.033983e-11
32.296000	-2.30703e-10
32.297000	-4.336116e-10
32.298000	-6.010917e-10
32.299000	-7.556887e-10
32.300000	-7.943379e-10
32.301000	-8.07221e-10
32.302000	-6.622863e-10
32.303000	-6.010917e-10
32.304000	-4.787024e-10
32.305000	-3.273261e-10
32.306000	-1.147553e-10
32.307000	1.235818e-10
32.308000	2.975034e-10
32.309000	4.295551e-10
32.310000	4.746458e-10
32.311000	4.875289e-10
32.312000	3.586981e-10
32.313000	2.846204e-10
32.314000	1.751141e-10
32.315000	4.413275e-12
32.316000	-2.435861e-10
32.317000	-4.239493e-10
32.318000	-5.946501e-10
32.319000	-7.524679e-10
32.320000	-7.750133e-10
32.321000	-7.975587e-10
32.322000	-6.397409e-10
32.323000	-5.721047e-10
32.324000	-4.110662e-10
32.325000	-2.339238e-10
32.326000	-2.028267e-12
32.327000	2.298672e-10
32.328000	4.649835e-10
32.329000	7.162037e-10
32.330000	7.67736e-10
32.331000	5.357335e-09
32.332000	1.014662e-08
32.333000	1.126101e-08
32.334000	1.074246e-08
32.335000	9.399402e-09
32.336000	7.888861e-09
32.337000	6.539358e-09
32.338000	5.424971e-09
32.339000	4.62944e-09
32.340000	3.978845e-09
32.341000	3.347574e-09
32.342000	2.745289e-09
32.343000	2.007733e-09
32.344000	8.933461e-10
32.345000	4.939705e-10
32.346000	1.721084e-09
32.347000	3.022276e-09
32.348000	3.965962e-09
32.349000	4.761492e-09
32.350000	5.289699e-09
32.351000	5.627879e-09
32.352000	5.708399e-09
32.353000	5.811463e-09
32.354000	5.747048e-09
32.355000	5.576347e-09
32.356000	5.29614e-09
32.357000	5.061024e-09
32.358000	4.697077e-09
32.359000	4.29448e-09
32.360000	3.991728e-09
32.361000	3.66643e-09
32.362000	3.566586e-09
32.363000	3.386223e-09
32.364000	3.305704e-09
32.365000	3.221964e-09
32.366000	3.186535e-09
32.367000	2.751731e-09
32.368000	1.888564e-09
32.369000	2.004512e-09
32.370000	2.358797e-09
32.371000	2.523056e-09
32.372000	2.255732e-09
32.373000	1.978746e-09
32.374000	1.630903e-09
32.375000	1.247631e-09
32.376000	8.321514e-10
32.377000	5.165159e-10
32.378000	2.395296e-10
32.379000	-2.028267e-12
32.380000	-1.147553e-10
32.381000	-2.049368e-10
32.382000	-6.644369e-11
32.383000	-8.469809e-12
32.384000	3.017944e-11
32.385000	2.202049e-10
32.386000	4.939705e-10
32.387000	7.709568e-10
32.388000	9.545407e-10
32.389000	1.102696e-09
32.390000	1.138125e-09
32.391000	1.147787e-09
32.392000	9.835277e-10
32.393000	8.579176e-10
32.394000	7.097621e-10
32.395000	4.843082e-10
32.396000	2.008803e-10
32.397000	-5.033983e-11
32.398000	-2.371446e-10
32.399000	-4.110662e-10
32.400000	-4.464947e-10
32.401000	-5.044685e-10
32.402000	-3.853e-10
32.403000	-3.724169e-10
32.404000	-2.274822e-10
32.405000	-1.050929e-10
32.406000	1.106987e-10
32.407000	3.361527e-10
32.408000	4.939705e-10
32.409000	6.389052e-10
32.410000	6.485675e-10
32.411000	6.678921e-10
32.412000	5.165159e-10
32.413000	4.231135e-10
32.414000	2.717373e-10
32.415000	9.781563e-11
32.416000	-1.244176e-10
32.417000	-3.530923e-10
32.418000	-5.68884e-10
32.419000	-7.782341e-10
32.420000	-9.263896e-10
32.421000	-1.184051e-09
32.422000	-1.158285e-09
32.423000	-1.167947e-09
32.424000	-1.039117e-09
32.425000	-8.555326e-10
32.426000	-5.560009e-10
32.427000	-2.274822e-10
32.428000	5.42282e-10
32.429000	1.221865e-09
32.430000	1.331371e-09
32.431000	1.199319e-09
32.432000	9.158915e-10
32.433000	7.097621e-10
32.434000	4.521004e-10
32.435000	1.879972e-10
32.436000	-1.083137e-10
32.437000	-3.498715e-10
32.438000	-5.624424e-10
32.439000	-7.331433e-10
32.440000	-7.911172e-10
32.441000	-8.329872e-10
32.442000	-6.977148e-10
32.443000	-6.365202e-10
32.444000	-4.98027e-10
32.445000	-3.369885e-10
32.446000	-9.86514e-11
32.447000	1.332441e-10
32.448000	3.232696e-10
32.449000	4.810874e-10
32.450000	5.261782e-10
32.451000	5.551651e-10
32.452000	4.037889e-10
32.453000	3.586981e-10
32.454000	2.427503e-10
32.455000	5.594561e-11
32.456000	-1.984953e-10
32.457000	-4.078454e-10
32.458000	-5.68884e-10
32.459000	-7.331433e-10
32.460000	-7.846756e-10
32.461000	-8.07221e-10
32.462000	-6.655071e-10
32.463000	-6.043125e-10
32.464000	-4.754816e-10
32.465000	-3.208846e-10
32.466000	-8.254754e-11
32.467000	1.686726e-10
32.468000	3.103865e-10
32.469000	5.036328e-10
32.470000	5.551651e-10
32.471000	5.616067e-10
32.472000	4.070097e-10
32.473000	3.586981e-10
32.474000	2.234257e-10
32.475000	4.306253e-11
32.476000	-2.017161e-10
32.477000	-4.175077e-10
32.478000	-6.332994e-10
32.479000	-7.65351e-10
32.480000	-8.040003e-10
32.481000	-8.329872e-10
32.482000	-6.880525e-10
32.483000	-6.268578e-10
32.484000	-4.98027e-10
32.485000	-3.724169e-10
32.486000	-1.147553e-10
32.487000	1.074779e-10
32.488000	2.942827e-10
32.489000	4.392174e-10
32.490000	4.810874e-10
32.491000	4.875289e-10
32.492000	3.393735e-10
32.493000	2.62075e-10
32.494000	1.364649e-10
32.495000	-4.067752e-11
32.496000	-2.918977e-10
32.497000	-5.39897e-10
32.498000	-6.171955e-10
32.499000	-7.911172e-10
32.500000	-9.006234e-10
32.501000	-9.811427e-10
32.502000	-8.265457e-10
32.503000	-7.299225e-10
32.504000	-5.656632e-10
32.505000	-4.110662e-10
32.506000	-1.534045e-10
32.507000	1.106987e-10
32.508000	3.007242e-10
32.509000	4.521004e-10
32.510000	5.00412e-10
32.511000	5.132951e-10
32.512000	3.748019e-10
32.513000	3.168281e-10
32.514000	1.91218e-10
32.515000	2.051713e-11
32.516000	-2.403653e-10
32.517000	-4.400531e-10
32.518000	-6.139748e-10
32.519000	-7.621302e-10
32.520000	-8.104418e-10
32.521000	-8.36208e-10
32.522000	-7.073771e-10
32.523000	-6.236371e-10
32.524000	-5.141309e-10
32.525000	-3.659754e-10
32.526000	-1.59846e-10
32.527000	1.042572e-10
32.528000	2.781788e-10
32.529000	4.263343e-10
32.530000	4.746458e-10
32.531000	4.843082e-10
32.532000	3.329319e-10
32.533000	3.03945e-10
32.534000	1.622311e-10
32.535000	-1.813212e-11
32.536000	-2.564692e-10
32.537000	-4.56157e-10
32.538000	-6.300786e-10
32.539000	-7.911172e-10
32.540000	-8.458703e-10
32.541000	-8.49091e-10
32.542000	-7.202602e-10
32.543000	-6.687279e-10
32.544000	-5.237932e-10
32.545000	-3.659754e-10
32.546000	-1.308591e-10
32.547000	9.459486e-11
32.548000	2.717373e-10
32.549000	4.295551e-10
32.550000	4.327758e-10
32.551000	4.488797e-10
32.552000	3.45815e-10
32.553000	2.781788e-10
32.554000	1.590103e-10
32.555000	-1.169058e-11
32.556000	-2.403653e-10
32.557000	-4.56157e-10
32.558000	-6.429617e-10
32.559000	-8.007795e-10
32.560000	-8.587534e-10
32.561000	-8.49091e-10
32.562000	-7.105979e-10
32.563000	-6.365202e-10
32.564000	-4.98027e-10
32.565000	-3.4343e-10
32.566000	-1.211968e-10
32.567000	1.139195e-10
32.568000	2.975034e-10
32.569000	4.231135e-10
32.570000	4.58542e-10
32.571000	4.810874e-10
32.572000	3.361527e-10
32.573000	2.813996e-10
32.574000	1.461272e-10
32.575000	-1.169058e-11
32.576000	-2.693523e-10
32.577000	-4.529362e-10
32.578000	-6.236371e-10
32.579000	-7.685718e-10
32.580000	-7.878964e-10
